hr,red,datetime
2667,2584,2023-10-28 18:04:08.738255
2863,2463,2023-10-28 18:04:08.763807
3797,2852,2023-10-28 18:04:09.871294
3795,2852,2023-10-28 18:04:09.892960
3793,2852,2023-10-28 18:04:09.973794
3794,2852,2023-10-28 18:04:10.044078
3795,2852,2023-10-28 18:04:10.104295
3813,2858,2023-10-28 18:04:10.164858
3809,2857,2023-10-28 18:04:10.225144
3809,2857,2023-10-28 18:04:10.295360
3811,2858,2023-10-28 18:04:10.355513
3814,2859,2023-10-28 18:04:10.406086
3816,2860,2023-10-28 18:04:10.466388
3819,2861,2023-10-28 18:04:10.526613
3821,2862,2023-10-28 18:04:10.587265
3823,2862,2023-10-28 18:04:10.647464
3824,2863,2023-10-28 18:04:10.707659
3825,2863,2023-10-28 18:04:10.767820
3826,2863,2023-10-28 18:04:10.838367
3827,2863,2023-10-28 18:04:10.898593
3827,2863,2023-10-28 18:04:10.961277
3826,2863,2023-10-28 18:04:11.029673
3832,2864,2023-10-28 18:04:11.109667
3832,2864,2023-10-28 18:04:11.170080
3832,2864,2023-10-28 18:04:11.240055
3830,2863,2023-10-28 18:04:11.310620
3830,2863,2023-10-28 18:04:11.381412
3829,2863,2023-10-28 18:04:11.461121
3830,2863,2023-10-28 18:04:11.541667
3830,2863,2023-10-28 18:04:11.622067
3830,2863,2023-10-28 18:04:11.692209
3830,2863,2023-10-28 18:04:11.772866
3831,2863,2023-10-28 18:04:11.842914
3831,2863,2023-10-28 18:04:11.923245
3831,2861,2023-10-28 18:04:11.993226
3831,2861,2023-10-28 18:04:12.063955
3832,2861,2023-10-28 18:04:12.144244
3833,2862,2023-10-28 18:04:12.214452
3833,2862,2023-10-28 18:04:12.284643
3833,2862,2023-10-28 18:04:12.365222
3834,2862,2023-10-28 18:04:12.435564
3834,2862,2023-10-28 18:04:12.515683
3834,2862,2023-10-28 18:04:12.586245
3832,2861,2023-10-28 18:04:12.656520
3827,2860,2023-10-28 18:04:12.736739
3818,2857,2023-10-28 18:04:12.817103
3833,2860,2023-10-28 18:04:12.887584
3832,2859,2023-10-28 18:04:12.977856
3828,2858,2023-10-28 18:04:13.058002
3821,2855,2023-10-28 18:04:13.138536
3813,2853,2023-10-28 18:04:13.228672
3810,2852,2023-10-28 18:04:13.309439
3812,2853,2023-10-28 18:04:13.399664
3817,2854,2023-10-28 18:04:13.489916
3821,2856,2023-10-28 18:04:13.580570
3824,2857,2023-10-28 18:04:13.660273
3827,2857,2023-10-28 18:04:13.740665
3827,2857,2023-10-28 18:04:13.831525
3828,2858,2023-10-28 18:04:13.921477
3829,2858,2023-10-28 18:04:14.001880
3830,2858,2023-10-28 18:04:14.092098
3831,2858,2023-10-28 18:04:14.182092
3832,2859,2023-10-28 18:04:14.282121
3833,2859,2023-10-28 18:04:14.362920
3834,2859,2023-10-28 18:04:14.453030
3835,2859,2023-10-28 18:04:14.543800
3835,2858,2023-10-28 18:04:14.633861
3836,2858,2023-10-28 18:04:14.734006
3836,2859,2023-10-28 18:04:14.824204
3836,2858,2023-10-28 18:04:14.914376
3836,2858,2023-10-28 18:04:15.004941
3836,2859,2023-10-28 18:04:15.095300
3836,2858,2023-10-28 18:04:15.195468
3836,2859,2023-10-28 18:04:15.286013
3837,2858,2023-10-28 18:04:15.376318
3837,2858,2023-10-28 18:04:15.467281
3838,2858,2023-10-28 18:04:15.567798
3839,2858,2023-10-28 18:04:15.668323
3840,2859,2023-10-28 18:04:15.768077
3842,2859,2023-10-28 18:04:15.868174
3842,2860,2023-10-28 18:04:15.968700
3844,2860,2023-10-28 18:04:16.068565
3820,2851,2023-10-28 18:04:16.168788
3818,2851,2023-10-28 18:04:16.268983
3819,2851,2023-10-28 18:04:16.379830
3823,2853,2023-10-28 18:04:16.490870
3827,2854,2023-10-28 18:04:16.591064
3830,2855,2023-10-28 18:04:16.691526
3832,2855,2023-10-28 18:04:16.791303
3833,2856,2023-10-28 18:04:16.891272
3839,2857,2023-10-28 18:04:17.002651
3840,2857,2023-10-28 18:04:17.102694
3840,2858,2023-10-28 18:04:17.212051
3840,2857,2023-10-28 18:04:17.312772
3839,2857,2023-10-28 18:04:17.422735
3839,2857,2023-10-28 18:04:17.523004
3840,2857,2023-10-28 18:04:17.623265
3840,2857,2023-10-28 18:04:17.723990
3843,2858,2023-10-28 18:04:17.824619
3844,2859,2023-10-28 18:04:17.934209
3844,2859,2023-10-28 18:04:18.034391
3844,2859,2023-10-28 18:04:18.145120
3844,2858,2023-10-28 18:04:18.265397
3845,2859,2023-10-28 18:04:18.385631
3845,2859,2023-10-28 18:04:18.496252
3844,2858,2023-10-28 18:04:18.616432
3844,2858,2023-10-28 18:04:18.726659
3845,2858,2023-10-28 18:04:18.847610
3846,2858,2023-10-28 18:04:18.957409
3847,2859,2023-10-28 18:04:19.067739
3847,2859,2023-10-28 18:04:19.187904
3845,2857,2023-10-28 18:04:19.342731
3846,2857,2023-10-28 18:04:20.490014
3846,2858,2023-10-28 18:04:20.546831
3847,2858,2023-10-28 18:04:20.603387
3846,2858,2023-10-28 18:04:20.681376
3847,2858,2023-10-28 18:04:20.744787
3847,2858,2023-10-28 18:04:20.804359
3847,2858,2023-10-28 18:04:20.864904
3848,2858,2023-10-28 18:04:20.935189
3848,2858,2023-10-28 18:04:20.996099
3848,2858,2023-10-28 18:04:21.045977
3849,2859,2023-10-28 18:04:21.106263
3849,2859,2023-10-28 18:04:21.166487
3849,2859,2023-10-28 18:04:21.226647
3849,2859,2023-10-28 18:04:21.287208
3850,2859,2023-10-28 18:04:21.347659
3850,2859,2023-10-28 18:04:21.408337
3850,2859,2023-10-28 18:04:21.468390
3848,2858,2023-10-28 18:04:21.528561
3847,2858,2023-10-28 18:04:21.588894
3849,2858,2023-10-28 18:04:21.658942
3848,2858,2023-10-28 18:04:21.729485
3845,2857,2023-10-28 18:04:21.789761
3841,2856,2023-10-28 18:04:21.849991
3838,2855,2023-10-28 18:04:21.910990
3837,2855,2023-10-28 18:04:21.980835
3839,2855,2023-10-28 18:04:22.051053
3841,2856,2023-10-28 18:04:22.121872
3842,2856,2023-10-28 18:04:22.191756
3844,2857,2023-10-28 18:04:22.272047
3844,2857,2023-10-28 18:04:22.342367
3845,2857,2023-10-28 18:04:22.412820
3846,2857,2023-10-28 18:04:22.483174
3840,2856,2023-10-28 18:04:22.553335
3842,2856,2023-10-28 18:04:22.623538
3843,2856,2023-10-28 18:04:22.714042
3844,2857,2023-10-28 18:04:22.784390
3845,2857,2023-10-28 18:04:22.854551
3846,2857,2023-10-28 18:04:22.935159
3847,2857,2023-10-28 18:04:23.005384
3847,2857,2023-10-28 18:04:23.075607
3848,2858,2023-10-28 18:04:23.146432
3847,2858,2023-10-28 18:04:23.216346
3847,2857,2023-10-28 18:04:23.296671
3846,2857,2023-10-28 18:04:23.366845
3847,2857,2023-10-28 18:04:23.447924
3848,2858,2023-10-28 18:04:23.527659
3848,2858,2023-10-28 18:04:23.597982
3848,2858,2023-10-28 18:04:23.667871
3848,2858,2023-10-28 18:04:23.748636
3847,2857,2023-10-28 18:04:23.828957
3847,2857,2023-10-28 18:04:23.909104
3846,2857,2023-10-28 18:04:23.999667
3845,2856,2023-10-28 18:04:24.079971
3844,2857,2023-10-28 18:04:24.160424
3845,2857,2023-10-28 18:04:24.240728
3850,2858,2023-10-28 18:04:24.321005
3849,2858,2023-10-28 18:04:24.401214
3848,2858,2023-10-28 18:04:24.482104
3848,2858,2023-10-28 18:04:24.582232
3848,2858,2023-10-28 18:04:24.662136
3848,2858,2023-10-28 18:04:24.752190
3849,2858,2023-10-28 18:04:24.842872
3850,2859,2023-10-28 18:04:24.932993
3853,2860,2023-10-28 18:04:25.023141
3858,2864,2023-10-28 18:04:25.118406
3857,2864,2023-10-28 18:04:25.233814
3857,2863,2023-10-28 18:04:25.324089
3857,2864,2023-10-28 18:04:25.414321
3857,2863,2023-10-28 18:04:25.514927
3856,2863,2023-10-28 18:04:25.605923
3856,2863,2023-10-28 18:04:25.706086
3856,2863,2023-10-28 18:04:25.795522
3856,2863,2023-10-28 18:04:25.896082
3855,2862,2023-10-28 18:04:25.986426
3856,2863,2023-10-28 18:04:26.086584
3858,2863,2023-10-28 18:04:26.187155
3858,2863,2023-10-28 18:04:26.297425
3858,2863,2023-10-28 18:04:26.397659
3857,2863,2023-10-28 18:04:26.498057
3854,2862,2023-10-28 18:04:26.598475
3851,2861,2023-10-28 18:04:26.698717
3843,2857,2023-10-28 18:04:26.798998
3837,2855,2023-10-28 18:04:26.899406
3834,2854,2023-10-28 18:04:26.999705
3835,2854,2023-10-28 18:04:27.099928
3838,2855,2023-10-28 18:04:27.200100
3843,2857,2023-10-28 18:04:27.300665
3847,2858,2023-10-28 18:04:27.401014
3857,2867,2023-10-28 18:04:27.526778
3856,2866,2023-10-28 18:04:27.631846
3858,2867,2023-10-28 18:04:27.742002
3858,2866,2023-10-28 18:04:27.853346
3858,2866,2023-10-28 18:04:27.962801
3858,2866,2023-10-28 18:04:28.063675
3861,2867,2023-10-28 18:04:28.164276
3864,2869,2023-10-28 18:04:28.264347
3862,2868,2023-10-28 18:04:28.365072
3860,2868,2023-10-28 18:04:28.484485
3859,2867,2023-10-28 18:04:28.584221
3860,2867,2023-10-28 18:04:28.695041
3862,2868,2023-10-28 18:04:28.805305
3864,2870,2023-10-28 18:04:28.915528
3865,2870,2023-10-28 18:04:29.025706
3860,2870,2023-10-28 18:04:29.136255
3860,2869,2023-10-28 18:04:29.246499
3860,2869,2023-10-28 18:04:29.356948
3859,2869,2023-10-28 18:04:29.467377
3859,2869,2023-10-28 18:04:29.587998
3859,2868,2023-10-28 18:04:29.708007
3859,2868,2023-10-28 18:04:29.817820
3860,2869,2023-10-28 18:04:29.972957
3860,2869,2023-10-28 18:04:30.043227
3860,2869,2023-10-28 18:04:30.103241
3860,2869,2023-10-28 18:04:30.173804
3860,2869,2023-10-28 18:04:30.254055
3861,2869,2023-10-28 18:04:30.324159
3856,2868,2023-10-28 18:04:31.491076
3856,2868,2023-10-28 18:04:31.555025
3857,2869,2023-10-28 18:04:31.609142
3857,2868,2023-10-28 18:04:31.665600
3857,2868,2023-10-28 18:04:31.726080
3858,2869,2023-10-28 18:04:31.786368
3858,2869,2023-10-28 18:04:31.847080
3858,2869,2023-10-28 18:04:31.907163
3858,2869,2023-10-28 18:04:31.967434
3858,2869,2023-10-28 18:04:32.027661
3859,2869,2023-10-28 18:04:32.087804
3854,2867,2023-10-28 18:04:32.164570
3855,2867,2023-10-28 18:04:32.228636
3855,2868,2023-10-28 18:04:32.288897
3855,2868,2023-10-28 18:04:32.389443
3856,2868,2023-10-28 18:04:32.449673
3856,2868,2023-10-28 18:04:32.519953
3856,2868,2023-10-28 18:04:32.580075
3856,2868,2023-10-28 18:04:32.640629
3856,2868,2023-10-28 18:04:32.710853
3856,2868,2023-10-28 18:04:32.780992
3856,2868,2023-10-28 18:04:32.851704
3856,2868,2023-10-28 18:04:32.921968
3856,2868,2023-10-28 18:04:33.002188
3855,2868,2023-10-28 18:04:33.072367
3855,2868,2023-10-28 18:04:33.142874
3854,2867,2023-10-28 18:04:33.223244
3854,2867,2023-10-28 18:04:33.303421
3854,2868,2023-10-28 18:04:33.373989
3855,2868,2023-10-28 18:04:33.444259
3855,2868,2023-10-28 18:04:33.517945
3856,2868,2023-10-28 18:04:33.584720
3855,2868,2023-10-28 18:04:33.655196
3855,2868,2023-10-28 18:04:33.725548
3853,2867,2023-10-28 18:04:33.796371
3850,2866,2023-10-28 18:04:33.866273
3854,2867,2023-10-28 18:04:33.951111
3853,2867,2023-10-28 18:04:34.036741
3853,2867,2023-10-28 18:04:34.107290
3854,2867,2023-10-28 18:04:34.187488
3854,2867,2023-10-28 18:04:34.257832
3854,2867,2023-10-28 18:04:34.327973
3854,2867,2023-10-28 18:04:34.398527
3852,2867,2023-10-28 18:04:34.478797
3850,2866,2023-10-28 18:04:34.559042
3847,2865,2023-10-28 18:04:34.639643
3845,2865,2023-10-28 18:04:34.720531
3857,2869,2023-10-28 18:04:34.814654
3856,2868,2023-10-28 18:04:34.890243
3855,2868,2023-10-28 18:04:34.980799
3852,2867,2023-10-28 18:04:35.061054
3850,2866,2023-10-28 18:04:35.151272
3847,2865,2023-10-28 18:04:35.242100
3846,2865,2023-10-28 18:04:35.332635
3847,2865,2023-10-28 18:04:35.422094
3848,2866,2023-10-28 18:04:35.512167
3849,2866,2023-10-28 18:04:35.602922
3842,2863,2023-10-28 18:04:35.693011
3843,2864,2023-10-28 18:04:35.783227
3845,2864,2023-10-28 18:04:35.874023
3846,2865,2023-10-28 18:04:35.964014
3847,2865,2023-10-28 18:04:36.054197
3848,2865,2023-10-28 18:04:36.144840
3849,2866,2023-10-28 18:04:36.234932
3850,2866,2023-10-28 18:04:36.325224
3850,2866,2023-10-28 18:04:36.415456
3845,2864,2023-10-28 18:04:36.506000
3846,2864,2023-10-28 18:04:36.596394
3847,2865,2023-10-28 18:04:36.686483
3848,2865,2023-10-28 18:04:36.786850
3849,2865,2023-10-28 18:04:36.887229
3849,2866,2023-10-28 18:04:37.007579
3849,2866,2023-10-28 18:04:37.107752
3848,2865,2023-10-28 18:04:37.208302
3842,2861,2023-10-28 18:04:37.318569
3844,2863,2023-10-28 18:04:37.418799
3848,2864,2023-10-28 18:04:37.519012
3850,2865,2023-10-28 18:04:37.619650
3850,2865,2023-10-28 18:04:37.729855
3848,2864,2023-10-28 18:04:37.829999
3846,2863,2023-10-28 18:04:37.930556
3843,2862,2023-10-28 18:04:38.031029
3854,2868,2023-10-28 18:04:38.141060
3855,2869,2023-10-28 18:04:38.261212
3855,2869,2023-10-28 18:04:38.361797
3855,2869,2023-10-28 18:04:38.462133
3854,2868,2023-10-28 18:04:38.572679
3852,2868,2023-10-28 18:04:38.672845
3851,2867,2023-10-28 18:04:38.773123
3850,2867,2023-10-28 18:04:38.883407
3850,2867,2023-10-28 18:04:38.994547
3849,2867,2023-10-28 18:04:39.094209
3849,2867,2023-10-28 18:04:39.194594
3849,2867,2023-10-28 18:04:39.294595
3849,2867,2023-10-28 18:04:39.395126
3849,2867,2023-10-28 18:04:39.505381
3849,2867,2023-10-28 18:04:39.615691
3851,2867,2023-10-28 18:04:39.726601
3851,2867,2023-10-28 18:04:39.837457
3851,2867,2023-10-28 18:04:39.946838
3851,2868,2023-10-28 18:04:40.056687
3852,2867,2023-10-28 18:04:40.167398
3852,2868,2023-10-28 18:04:40.287644
3852,2868,2023-10-28 18:04:40.397916
3848,2866,2023-10-28 18:04:40.562974
3848,2866,2023-10-28 18:04:40.622635
3847,2865,2023-10-28 18:04:40.683165
3846,2864,2023-10-28 18:04:40.743233
3844,2863,2023-10-28 18:04:40.803863
3842,2862,2023-10-28 18:04:40.874209
3840,2860,2023-10-28 18:04:40.934458
3840,2859,2023-10-28 18:04:41.004906
3842,2860,2023-10-28 18:04:41.085190
3847,2862,2023-10-28 18:04:41.155408
3851,2864,2023-10-28 18:04:41.225590
3853,2867,2023-10-28 18:04:41.318150
3843,2862,2023-10-28 18:04:42.481063
3843,2862,2023-10-28 18:04:42.550302
3843,2862,2023-10-28 18:04:42.617346
3846,2864,2023-10-28 18:04:42.683624
3846,2864,2023-10-28 18:04:42.747701
3847,2864,2023-10-28 18:04:42.808933
3847,2864,2023-10-28 18:04:42.868541
3847,2864,2023-10-28 18:04:42.938757
3848,2864,2023-10-28 18:04:43.009251
3848,2864,2023-10-28 18:04:43.069480
3848,2864,2023-10-28 18:04:43.139736
3848,2864,2023-10-28 18:04:43.199960
3848,2864,2023-10-28 18:04:43.260556
3847,2864,2023-10-28 18:04:43.330824
3844,2863,2023-10-28 18:04:43.401041
3841,2862,2023-10-28 18:04:43.471209
3837,2861,2023-10-28 18:04:43.541765
3847,2864,2023-10-28 18:04:43.612122
3847,2863,2023-10-28 18:04:43.682280
3847,2864,2023-10-28 18:04:43.762813
3845,2863,2023-10-28 18:04:43.833542
3841,2861,2023-10-28 18:04:43.903324
3835,2860,2023-10-28 18:04:43.983486
3830,2858,2023-10-28 18:04:44.054038
3829,2858,2023-10-28 18:04:44.124339
3832,2858,2023-10-28 18:04:44.194558
3834,2860,2023-10-28 18:04:44.265123
3837,2860,2023-10-28 18:04:44.335415
3839,2861,2023-10-28 18:04:44.415776
3835,2860,2023-10-28 18:04:44.490085
3832,2858,2023-10-28 18:04:44.580350
3833,2859,2023-10-28 18:04:44.656735
3835,2859,2023-10-28 18:04:44.736834
3837,2860,2023-10-28 18:04:44.807398
3839,2861,2023-10-28 18:04:44.877677
3841,2861,2023-10-28 18:04:44.947919
3842,2862,2023-10-28 18:04:45.028013
3844,2862,2023-10-28 18:04:45.108630
3844,2862,2023-10-28 18:04:45.178779
3845,2862,2023-10-28 18:04:45.259702
3840,2861,2023-10-28 18:04:45.353374
3841,2861,2023-10-28 18:04:45.429921
3843,2861,2023-10-28 18:04:45.510142
3843,2861,2023-10-28 18:04:45.590766
3844,2862,2023-10-28 18:04:45.671608
3845,2862,2023-10-28 18:04:45.761235
3845,2862,2023-10-28 18:04:45.841383
3845,2862,2023-10-28 18:04:45.921942
3844,2861,2023-10-28 18:04:46.002124
3843,2861,2023-10-28 18:04:46.092145
3843,2861,2023-10-28 18:04:46.172872
3843,2860,2023-10-28 18:04:46.272960
3842,2860,2023-10-28 18:04:46.363125
3841,2860,2023-10-28 18:04:46.443237
3841,2860,2023-10-28 18:04:46.533817
3841,2860,2023-10-28 18:04:46.634187
3841,2860,2023-10-28 18:04:46.734301
3841,2860,2023-10-28 18:04:46.824869
3842,2860,2023-10-28 18:04:46.915146
3841,2859,2023-10-28 18:04:47.019782
3840,2859,2023-10-28 18:04:47.115530
3839,2858,2023-10-28 18:04:47.207147
3839,2858,2023-10-28 18:04:47.306860
3839,2858,2023-10-28 18:04:47.396577
3840,2858,2023-10-28 18:04:47.497143
3840,2859,2023-10-28 18:04:47.587503
3841,2859,2023-10-28 18:04:47.687629
3841,2859,2023-10-28 18:04:47.787800
3841,2858,2023-10-28 18:04:47.888334
3839,2858,2023-10-28 18:04:47.998691
3839,2858,2023-10-28 18:04:48.098848
3839,2857,2023-10-28 18:04:48.199416
3838,2858,2023-10-28 18:04:48.309718
3839,2858,2023-10-28 18:04:48.419928
3840,2858,2023-10-28 18:04:48.520062
3842,2858,2023-10-28 18:04:48.630729
3843,2858,2023-10-28 18:04:48.741760
3842,2858,2023-10-28 18:04:48.851728
3842,2858,2023-10-28 18:04:48.952585
3840,2858,2023-10-28 18:04:49.052838
3839,2857,2023-10-28 18:04:49.162008
3839,2857,2023-10-28 18:04:49.262720
3838,2857,2023-10-28 18:04:49.372940
3841,2858,2023-10-28 18:04:49.483225
3842,2858,2023-10-28 18:04:49.583689
3843,2858,2023-10-28 18:04:49.683943
3844,2859,2023-10-28 18:04:49.784227
3844,2858,2023-10-28 18:04:49.884316
3844,2859,2023-10-28 18:04:49.984435
3843,2858,2023-10-28 18:04:50.105271
3840,2857,2023-10-28 18:04:50.211592
3841,2858,2023-10-28 18:04:50.315700
3842,2858,2023-10-28 18:04:50.426244
3843,2858,2023-10-28 18:04:50.546505
3844,2858,2023-10-28 18:04:50.666783
3844,2858,2023-10-28 18:04:50.777321
3844,2858,2023-10-28 18:04:50.898359
3838,2856,2023-10-28 18:04:51.017796
3840,2856,2023-10-28 18:04:51.128422
3841,2857,2023-10-28 18:04:51.282997
3842,2857,2023-10-28 18:04:51.353126
3843,2857,2023-10-28 18:04:51.413206
3843,2857,2023-10-28 18:04:51.473803
3843,2857,2023-10-28 18:04:51.544090
3843,2857,2023-10-28 18:04:51.615250
3842,2857,2023-10-28 18:04:51.684888
3841,2857,2023-10-28 18:04:51.755165
3840,2856,2023-10-28 18:04:51.837155
3841,2856,2023-10-28 18:04:51.905537
3842,2856,2023-10-28 18:04:51.986091
3842,2856,2023-10-28 18:04:52.056334
3842,2856,2023-10-28 18:04:52.137134
3841,2856,2023-10-28 18:04:52.207212
3839,2856,2023-10-28 18:04:52.277462
3839,2855,2023-10-28 18:04:52.347652
3838,2855,2023-10-28 18:04:52.417677
3815,2846,2023-10-28 18:04:53.591105
3816,2847,2023-10-28 18:04:53.659736
3820,2848,2023-10-28 18:04:53.722545
3826,2850,2023-10-28 18:04:53.799478
3831,2852,2023-10-28 18:04:53.869881
3834,2853,2023-10-28 18:04:53.929929
3836,2854,2023-10-28 18:04:53.990090
3838,2854,2023-10-28 18:04:54.060667
3821,2848,2023-10-28 18:04:54.120902
3819,2848,2023-10-28 18:04:54.191136
3822,2849,2023-10-28 18:04:54.261704
3828,2850,2023-10-28 18:04:54.331976
3832,2852,2023-10-28 18:04:54.412181
3835,2853,2023-10-28 18:04:54.492336
3837,2854,2023-10-28 18:04:54.573776
3839,2855,2023-10-28 18:04:54.643299
3840,2855,2023-10-28 18:04:54.713442
3841,2855,2023-10-28 18:04:54.784493
3841,2855,2023-10-28 18:04:54.864273
3842,2856,2023-10-28 18:04:54.934493
3833,2852,2023-10-28 18:04:55.004431
3835,2853,2023-10-28 18:04:55.085491
3837,2854,2023-10-28 18:04:55.165520
3839,2854,2023-10-28 18:04:55.235688
3840,2854,2023-10-28 18:04:55.306105
3841,2855,2023-10-28 18:04:55.376561
3841,2855,2023-10-28 18:04:55.446764
3841,2855,2023-10-28 18:04:55.516752
3841,2854,2023-10-28 18:04:55.598026
3840,2854,2023-10-28 18:04:55.677936
3839,2854,2023-10-28 18:04:55.747982
3838,2854,2023-10-28 18:04:55.818377
3840,2855,2023-10-28 18:04:55.888805
3841,2855,2023-10-28 18:04:56.023168
3841,2855,2023-10-28 18:04:56.110064
3840,2855,2023-10-28 18:04:56.189915
3839,2855,2023-10-28 18:04:56.280128
3838,2854,2023-10-28 18:04:56.370291
3838,2854,2023-10-28 18:04:56.460840
3838,2854,2023-10-28 18:04:56.540877
3838,2854,2023-10-28 18:04:56.621789
3842,2856,2023-10-28 18:04:56.701933
3842,2856,2023-10-28 18:04:56.792120
3842,2856,2023-10-28 18:04:56.882128
3841,2856,2023-10-28 18:04:56.972120
3841,2856,2023-10-28 18:04:57.062910
3840,2855,2023-10-28 18:04:57.143672
3840,2855,2023-10-28 18:04:57.233188
3840,2856,2023-10-28 18:04:57.323784
3841,2856,2023-10-28 18:04:57.414019
3841,2856,2023-10-28 18:04:57.517979
3840,2855,2023-10-28 18:04:57.624489
3840,2855,2023-10-28 18:04:57.715017
3840,2855,2023-10-28 18:04:57.805303
3839,2855,2023-10-28 18:04:57.895722
3840,2855,2023-10-28 18:04:57.986055
3840,2855,2023-10-28 18:04:58.086315
3840,2855,2023-10-28 18:04:58.176587
3841,2855,2023-10-28 18:04:58.267511
3839,2855,2023-10-28 18:04:58.368213
3840,2855,2023-10-28 18:04:58.477772
3840,2855,2023-10-28 18:04:58.587865
3841,2855,2023-10-28 18:04:58.688426
3841,2855,2023-10-28 18:04:58.789409
3841,2855,2023-10-28 18:04:58.888944
3842,2855,2023-10-28 18:04:58.998978
3842,2855,2023-10-28 18:04:59.099546
3841,2855,2023-10-28 18:04:59.209882
3842,2855,2023-10-28 18:04:59.320024
3842,2855,2023-10-28 18:04:59.420569
3842,2855,2023-10-28 18:04:59.530836
3842,2855,2023-10-28 18:04:59.631142
3842,2854,2023-10-28 18:04:59.731270
3842,2855,2023-10-28 18:04:59.831773
3840,2853,2023-10-28 18:04:59.932130
3840,2854,2023-10-28 18:05:00.032298
3840,2853,2023-10-28 18:05:00.142804
3840,2853,2023-10-28 18:05:00.253090
3840,2853,2023-10-28 18:05:00.353312
3841,2853,2023-10-28 18:05:00.453897
3841,2854,2023-10-28 18:05:00.554192
3841,2854,2023-10-28 18:05:00.664416
3841,2854,2023-10-28 18:05:00.774600
3841,2854,2023-10-28 18:05:00.885126
3841,2854,2023-10-28 18:05:00.985409
3841,2854,2023-10-28 18:05:01.095631
3842,2854,2023-10-28 18:05:01.206184
3842,2854,2023-10-28 18:05:01.326465
3842,2854,2023-10-28 18:05:01.437208
3841,2853,2023-10-28 18:05:01.547849
3842,2854,2023-10-28 18:05:01.657347
3842,2854,2023-10-28 18:05:01.777936
3842,2853,2023-10-28 18:05:01.891541
3841,2853,2023-10-28 18:05:02.042969
3837,2852,2023-10-28 18:05:02.103035
3830,2850,2023-10-28 18:05:02.173196
3820,2846,2023-10-28 18:05:02.233242
3815,2844,2023-10-28 18:05:02.293904
3842,2853,2023-10-28 18:05:02.354203
3840,2852,2023-10-28 18:05:02.414377
3836,2851,2023-10-28 18:05:02.484957
3828,2848,2023-10-28 18:05:02.545234
3818,2845,2023-10-28 18:05:02.615434
3814,2844,2023-10-28 18:05:02.685595
3816,2844,2023-10-28 18:05:02.756161
3821,2847,2023-10-28 18:05:02.826508
3826,2848,2023-10-28 18:05:02.896635
3830,2849,2023-10-28 18:05:02.967206
3832,2850,2023-10-28 18:05:03.037470
3834,2851,2023-10-28 18:05:03.117725
3835,2851,2023-10-28 18:05:03.190388
3812,2842,2023-10-28 18:05:03.258708
3814,2843,2023-10-28 18:05:03.338771
3820,2846,2023-10-28 18:05:03.418940
3825,2848,2023-10-28 18:05:03.499279
3830,2849,2023-10-28 18:05:03.569793
3841,2852,2023-10-28 18:05:04.741128
3841,2852,2023-10-28 18:05:04.821481
3841,2852,2023-10-28 18:05:04.900816
3842,2852,2023-10-28 18:05:04.961033
3842,2852,2023-10-28 18:05:05.031506
3842,2852,2023-10-28 18:05:05.101762
3842,2852,2023-10-28 18:05:05.182026
3842,2852,2023-10-28 18:05:05.255948
3842,2852,2023-10-28 18:05:05.322873
3842,2852,2023-10-28 18:05:05.393108
3839,2850,2023-10-28 18:05:05.467692
3839,2851,2023-10-28 18:05:05.533543
3840,2851,2023-10-28 18:05:05.604141
3840,2850,2023-10-28 18:05:05.684710
3841,2851,2023-10-28 18:05:05.764582
3841,2851,2023-10-28 18:05:05.835136
3841,2851,2023-10-28 18:05:05.905426
3841,2851,2023-10-28 18:05:05.975628
3841,2851,2023-10-28 18:05:06.045803
3841,2851,2023-10-28 18:05:06.126304
3841,2851,2023-10-28 18:05:06.196667
3842,2851,2023-10-28 18:05:06.276877
3840,2850,2023-10-28 18:05:06.358331
3840,2850,2023-10-28 18:05:06.437665
3840,2850,2023-10-28 18:05:06.517881
